Data from USB4F003871__1__00-06-27-001.txt Node

Date: Thu Apr 24 00:06:27 PDT 2025
User: X13
Spectrometer: USB4F00387
Trigger mode: 4
Integration Time (sec): 1.000000E0
Scans to average: 1
Electric dark correction enabled: true
Nonlinearity correction enabled: false
Boxcar width: 0
XAxis mode: Wavelengths
Number of Pixels in Spectrum: 3648
>>>>>Begin Spectral Data<<<<<
345.118	-1243.8
345.334	-1243.8
345.55	-1243.8
345.767	-1208.98
345.983	-1284.76
346.199	-305.83
346.416	-371.36
346.632	177.49
346.848	392.53
347.064	-12.97
347.281	-273.06
347.497	304.46
347.713	161.11
347.929	-441
348.146	-244.39
348.362	435.53
348.578	177.49
348.794	-342.69
349.01	-338.6
349.226	-43.69
349.442	259.41
349.659	-164.52
349.875	-260.77
350.091	259.41
350.307	23.89
350.523	-111.27
350.739	-256.68
350.955	-51.88
351.171	263.51
351.387	-238.25
351.603	-303.78
351.819	331.09
352.035	-6.83
352.251	-242.34
352.467	83.28
352.683	228.69
352.899	482.64
353.115	-428.71
353.331	-119.46
353.547	449.87
353.763	693.58
353.978	-25.26
354.194	-225.96
354.41	423.25
354.626	253.27
354.842	-273.06
355.058	66.9
355.273	238.93
355.489	447.82
355.705	-211.62
355.921	7.51
356.137	490.83
356.352	-166.57
356.568	30.04
356.784	-121.51
357	451.92
357.215	671.05
357.431	-86.7
357.647	-219.82
357.862	85.33
358.078	470.35
358.294	-303.78
358.509	-86.7
358.725	120.15
358.94	384.34
359.156	-354.98
359.372	148.82
359.587	468.3
359.803	402.77
360.018	-268.97
360.234	-248.49
360.449	486.73
360.665	226.64
360.88	-406.18
361.096	-189.1
361.311	283.99
361.527	144.72
361.742	58.71
361.958	-146.09
362.173	304.46
362.389	-12.97
362.604	-338.6
362.819	-348.84
363.035	152.91
363.25	224.59
363.466	-328.36
363.681	-49.83
363.896	410.96
364.112	-82.6
364.327	-23.21
364.542	-385.7
364.758	-64.17
364.973	312.66
365.188	-334.5
365.403	-119.46
365.619	124.24
365.834	638.28
366.049	-121.51
366.264	-252.58
366.479	685.39
366.695	466.25
366.91	-160.42
367.125	488.78
367.34	464.21
367.555	52.56
367.77	197.97
367.985	-264.87
368.201	-60.07
368.416	482.64
368.631	-88.75
368.846	-271.01
369.061	-31.4
369.276	304.46
369.491	-105.13
369.706	54.61
369.921	13.65
370.136	458.06
370.351	-219.82
370.566	23.89
370.781	271.7
370.996	406.86
371.211	7.51
371.426	-80.55
371.641	382.29
371.856	206.16
372.07	-498.34
372.285	-58.03
372.5	66.9
372.715	257.36
372.93	-66.22
373.145	-404.13
373.359	197.97
373.574	195.92
373.789	-58.03
374.004	-174.76
374.219	177.49
374.433	230.74
374.648	-215.72
374.863	-101.03
375.078	9.56
375.292	456.01
375.507	-275.11
375.722	-385.7
375.936	247.12
376.151	415.05
376.366	27.99
376.58	-348.84
376.795	337.23
377.01	130.39
377.224	-117.42
377.439	-213.67
377.653	-2.73
377.868	283.99
378.082	-293.54
378.297	-8.87
378.512	-55.98
378.726	505.17
378.941	-445.09
379.155	46.42
379.37	177.49
379.584	187.73
379.798	-311.97
380.013	-80.55
380.227	390.48
380.442	513.36
380.656	-219.82
380.871	-127.66
381.085	372.05
381.299	431.44
381.514	-88.75
381.728	-88.75
381.942	-191.14
382.157	296.27
382.371	-2.73
382.585	-232.1
382.8	388.43
383.014	634.19
383.228	-397.99
383.442	-211.62
383.657	355.66
383.871	202.07
384.085	-277.16
384.299	-393.89
384.514	478.54
384.728	118.1
384.942	-146.09
385.156	-232.1
385.37	-58.03
385.584	269.65
385.798	-23.21
386.013	-236.2
386.227	472.4
386.441	296.27
386.655	-146.09
386.869	-375.46
387.083	46.42
387.297	337.23
387.511	-344.74
387.725	-199.34
387.939	-27.31
388.153	578.89
388.367	-191.14
388.581	-293.54
388.795	202.07
389.009	230.74
389.223	-123.56
389.437	-39.59
389.651	38.23
389.865	-131.75
390.078	-178.86
390.292	-219.82
390.506	157.01
390.72	62.8
390.934	-301.73
391.148	-273.06
391.362	542.03
391.575	685.39
391.789	-273.06
392.003	1.37
392.217	58.71
392.43	408.91
392.644	-246.44
392.858	496.97
393.072	331.09
393.285	505.17
393.499	-318.12
393.713	-66.22
393.926	429.39
394.14	-119.46
394.354	-336.55
394.567	-144.04
394.781	253.27
394.994	613.71
395.208	-191.14
395.422	15.7
395.635	259.41
395.849	253.27
396.062	-141.99
396.276	-256.68
396.489	607.56
396.703	-123.56
396.916	140.63
397.13	-43.69
397.343	329.04
397.557	-10.92
397.77	-572.07
397.984	75.09
398.197	306.51
398.41	351.57
398.624	3.41
398.837	-346.79
399.051	1193.28
399.264	322.9
399.477	-291.49
399.691	-252.58
399.904	169.3
400.117	54.61
400.331	-10.92
400.544	-236.2
400.757	322.9
400.97	392.53
401.184	-217.77
401.397	-185
401.61	533.84
401.823	326.99
402.037	54.61
402.25	-420.52
402.463	271.7
402.676	548.17
402.889	-400.04
403.102	-72.36
403.316	224.59
403.529	435.53
403.742	2915.62
403.955	-111.27
404.168	365.9
404.381	308.56
404.594	-332.45
404.807	-375.46
405.02	-8.87
405.233	-47.79
405.446	-207.53
405.659	-264.87
405.872	597.32
406.085	300.37
406.298	34.13
406.511	46.42
406.724	365.9
406.937	-133.8
407.15	120.15
407.363	150.87
407.576	537.93
407.789	386.38
408.001	-182.95
408.214	-287.4
408.427	714.06
408.64	374.1
408.853	-158.38
409.066	-244.39
409.278	417.1
409.491	144.72
409.704	-266.92
409.917	-305.83
410.129	331.09
410.342	81.24
410.555	62.8
410.767	-228.01
410.98	-101.03
411.193	349.52
411.406	-146.09
411.618	-279.21
411.831	111.96
412.043	226.64
412.256	32.08
412.469	-457.38
412.681	380.24
412.894	316.75
413.106	-346.79
413.319	-211.62
413.532	175.44
413.744	259.41
413.957	75.09
414.169	-76.46
414.382	591.18
414.594	247.12
414.807	-133.8
415.019	-82.6
415.231	537.93
415.444	599.37
415.656	-260.77
415.869	-35.5
416.081	265.55
416.293	263.51
416.506	-213.67
416.718	148.82
416.931	173.39
417.143	505.17
417.355	-98.99
417.568	-156.33
417.78	636.24
417.992	400.72
418.204	-109.22
418.417	-15.02
418.629	288.08
418.841	564.56
419.053	-160.42
419.266	181.59
419.478	673.1
419.69	367.95
419.902	-105.13
420.114	-60.07
420.326	789.83
420.539	677.2
420.751	-58.03
420.963	-154.28
421.175	773.45
421.387	566.6
421.599	87.38
421.811	-84.65
422.023	736.59
422.235	490.83
422.447	484.69
422.659	173.39
422.871	462.16
423.083	795.98
423.295	50.52
423.507	343.38
423.719	644.43
423.931	927.05
424.143	128.34
424.355	326.99
424.567	832.84
424.779	531.79
424.991	95.57
425.202	322.9
425.414	638.28
425.626	705.87
425.838	99.67
426.05	21.85
426.262	951.62
426.473	1008.97
426.685	578.89
426.897	439.63
427.109	718.15
427.32	613.71
427.532	99.67
427.744	533.84
427.956	197.97
428.167	226.64
428.379	388.43
428.591	167.25
428.802	1226.05
429.014	795.98
429.226	206.16
429.437	361.81
429.649	730.44
429.86	554.32
430.072	36.18
430.284	697.67
430.495	1242.43
430.707	1082.69
430.918	505.17
431.13	460.11
431.341	894.28
431.553	648.52
431.764	400.72
431.976	277.84
432.187	1215.81
432.399	714.06
432.61	429.39
432.821	472.4
433.033	853.32
433.244	1312.07
433.456	632.14
433.667	677.2
433.878	406.86
434.09	902.47
434.301	443.73
434.512	644.43
434.724	730.44
434.935	855.37
435.146	316.75
435.357	406.86
435.569	1312.07
435.78	894.28
435.991	603.47
436.202	494.93
436.414	1021.25
436.625	1023.3
436.836	410.96
437.047	2479.41
437.258	1017.16
437.469	1045.83
437.681	726.35
437.892	644.43
438.103	845.13
438.314	908.62
438.525	750.92
438.736	626
438.947	1027.4
439.158	773.45
439.369	537.93
439.58	439.63
439.791	765.26
440.002	986.44
440.213	742.73
440.424	484.69
440.635	1254.72
440.846	918.86
441.057	560.46
441.268	505.17
441.479	1211.71
441.69	1123.65
441.901	628.04
442.111	533.84
442.322	1375.55
442.533	691.53
442.744	652.62
442.955	542.03
443.166	1144.13
443.376	1256.77
443.587	685.39
443.798	865.61
444.009	1301.83
444.219	1121.6
444.43	615.76
444.641	1021.25
444.852	1111.36
445.062	1342.78
445.273	959.81
445.484	621.9
445.694	914.76
445.905	865.61
446.115	836.94
446.326	820.55
446.537	1205.57
446.747	849.22
446.958	718.15
447.168	1107.27
447.379	1064.26
447.59	759.11
447.8	617.8
448.011	808.26
448.221	1246.53
448.432	1250.63
448.642	1541.44
448.852	683.34
449.063	1226.05
449.273	1377.6
449.484	687.43
449.694	677.2
449.905	1217.86
450.115	968.01
450.325	904.52
450.536	736.59
450.746	871.75
450.956	1631.55
451.167	922.95
451.377	646.48
451.587	1459.52
451.798	1250.63
452.008	943.43
452.218	965.96
452.428	1537.34
452.639	1723.71
452.849	935.24
453.059	861.51
453.269	1135.94
453.48	1135.94
453.69	931.14
453.9	918.86
454.11	1121.6
454.32	1447.23
454.53	1099.08
454.74	726.35
454.95	1535.29
455.161	1193.28
455.371	640.33
455.581	1017.16
455.791	1039.69
456.001	1402.18
456.211	621.9
456.421	1142.08
456.631	1357.12
456.841	1639.74
457.051	826.7
457.261	742.73
457.471	1246.53
457.681	1242.43
457.89	955.72
458.1	972.1
458.31	1357.12
458.52	1271.11
458.73	853.32
458.94	863.56
459.15	1410.37
459.36	1428.8
459.569	591.18
459.779	609.61
459.989	1328.45
460.199	1228.1
460.409	800.07
460.618	822.6
460.828	1230.15
461.038	1406.27
461.247	1320.26
461.457	1146.18
461.667	1328.45
461.877	1506.62
462.086	798.03
462.296	824.65
462.505	1463.61
462.715	1533.25
462.925	1482.05
463.134	929.1
463.344	1465.66
463.554	1273.15
463.763	959.81
463.973	1086.79
464.182	1758.52
464.392	1713.47
464.601	1094.98
464.811	1326.4
465.02	1422.66
465.23	1381.7
465.439	1154.37
465.649	1367.36
465.858	1572.16
466.067	1983.8
466.277	1238.34
466.486	1125.7
466.696	1533.25
466.905	1350.98
467.114	1195.33
467.324	1226.05
467.533	1252.67
467.742	1566.01
467.952	1070.41
468.161	1107.27
468.37	1482.05
468.579	1609.02
468.789	1551.68
468.998	1049.93
469.207	1144.13
469.416	1635.64
469.626	1131.84
469.835	1115.46
470.044	2071.86
470.253	1856.82
470.462	1217.86
470.671	1402.18
470.881	1486.14
471.09	2057.53
471.299	1348.93
471.508	1310.02
471.717	1815.87
471.926	1721.66
472.135	1404.22
472.344	1054.02
472.553	2039.09
472.762	2010.42
472.971	1484.09
473.18	1248.58
473.389	2370.87
473.598	1824.06
473.807	1361.22
474.016	1672.51
474.225	1961.27
474.434	1883.45
474.643	1410.37
474.852	1295.68
475.06	1789.24
475.269	1910.07
475.478	1389.89
475.687	1209.67
475.896	2348.34
476.105	2299.19
476.313	1273.15
476.522	1426.75
476.731	2053.43
476.94	2043.19
477.148	1385.79
477.357	1619.26
477.566	1955.13
477.775	2301.23
477.983	1811.77
478.192	1391.94
478.401	2028.85
478.609	1828.15
478.818	1690.94
479.027	1447.23
479.235	2102.58
479.444	2209.08
479.652	1455.42
479.861	1967.42
480.069	1905.98
480.278	2125.11
480.487	1617.21
480.695	1840.44
480.904	2012.47
481.112	2514.22
481.321	1774.91
481.529	1600.83
481.737	2295.09
481.946	2329.91
482.154	1617.21
482.363	1441.09
482.571	2407.73
482.78	2006.33
482.988	1654.08
483.196	1910.07
483.405	2440.5
483.613	2430.26
483.821	1932.6
484.03	1942.84
484.238	2649.39
484.446	2430.26
484.655	1899.83
484.863	1594.69
485.071	2719.02
485.279	2309.43
485.488	2010.42
485.696	2121.01
485.904	2581.81
486.112	2381.1
486.32	2094.39
486.528	2827.56
486.737	2622.77
486.945	2479.41
487.153	1811.77
487.361	2262.32
487.569	2694.44
487.777	2786.6
487.985	2000.18
488.193	1973.56
488.401	2389.3
488.609	2094.39
488.817	2049.33
489.025	1897.78
489.233	2497.84
489.441	2764.08
489.649	2170.16
489.857	2118.97
490.065	2524.46
490.273	2567.47
490.481	2030.9
490.689	2149.68
490.897	2467.12
491.105	2258.23
491.313	2262.32
491.52	2028.85
491.728	2929.96
491.936	2641.2
492.144	1942.84
492.352	2209.08
492.559	2436.4
492.767	2743.6
492.975	1922.36
493.183	2309.43
493.39	2948.39
493.598	2581.81
493.806	1996.09
494.013	2350.39
494.221	3425.57
494.429	2757.93
494.636	2241.84
494.844	2131.25
495.052	2614.57
495.259	2884.91
495.467	2250.03
495.675	2200.88
495.882	2893.1
496.09	2553.13
496.297	2428.21
496.505	2596.14
496.712	2798.89
496.92	2663.72
497.127	2258.23
497.335	2374.96
497.542	2878.76
497.75	2778.41
497.957	2358.58
498.165	2270.51
498.372	2649.39
498.579	2860.33
498.787	2348.34
498.994	2354.48
499.201	2590
499.409	2643.24
499.616	2241.84
499.824	2262.32
500.031	2845.99
500.238	2645.29
500.445	2420.02
500.653	2073.91
500.86	2725.16
501.067	2751.79
501.274	2315.57
501.482	2397.49
501.689	2862.38
501.896	2936.1
502.103	2299.19
502.31	2356.53
502.518	3099.94
502.725	2745.64
502.932	2204.98
503.139	2307.38
503.346	2909.48
503.553	2708.78
503.76	2247.99
503.967	2301.23
504.174	2686.25
504.381	2893.1
504.588	2340.15
504.795	2389.3
505.002	3231.01
505.209	2884.91
505.416	2360.63
505.623	2284.85
505.83	3077.41
506.037	2895.15
506.244	2151.73
506.451	2170.16
506.658	2884.91
506.865	2913.58
507.072	2682.16
507.278	2559.28
507.485	2653.48
507.692	2934.06
507.899	2692.4
508.106	2319.67
508.312	2792.75
508.519	2882.86
508.726	2299.19
508.933	2413.87
509.139	3081.51
509.346	3030.31
509.553	2604.33
509.76	2325.81
509.966	2860.33
510.173	2676.01
510.38	2544.94
510.586	2309.43
510.793	2841.9
510.999	2823.47
511.206	2581.81
511.413	2391.34
511.619	2813.23
511.826	3181.86
512.032	2526.51
512.239	2172.21
512.445	3079.46
512.652	2700.59
512.858	2458.93
513.065	2299.19
513.271	3429.66
513.478	2942.25
513.684	2487.6
513.891	2192.69
514.097	2979.11
514.303	2577.71
514.51	2409.78
514.716	2549.04
514.923	2565.42
515.129	2950.44
515.335	2360.63
515.542	2501.94
515.748	2893.1
515.954	2995.5
516.16	2377.01
516.367	2524.46
516.573	3269.92
516.779	2727.21
516.985	2102.58
517.192	2757.93
517.398	2790.7
517.604	2733.36
517.81	2278.71
518.016	2434.35
518.223	2827.56
518.429	2856.23
518.635	2422.06
518.841	2295.09
519.047	2919.72
519.253	2868.52
519.459	2278.71
519.665	2245.94
519.871	2915.62
520.077	2901.29
520.283	1983.8
520.489	2303.28
520.695	2710.83
520.901	3202.34
521.107	2532.65
521.313	2379.06
521.519	2585.9
521.725	2915.62
521.931	2247.99
522.137	2194.74
522.343	2446.64
522.549	2739.5
522.754	2190.64
522.96	2446.64
523.166	2917.67
523.372	2850.09
523.578	2827.56
523.783	2512.18
523.989	2839.85
524.195	2966.82
524.401	2262.32
524.606	2807.08
524.812	3366.18
525.018	3192.1
525.224	2106.68
525.429	2311.47
525.635	2706.73
525.841	3077.41
526.046	2559.28
526.252	2432.3
526.458	3061.03
526.663	2958.63
526.869	2225.46
527.074	2336.05
527.28	2653.48
527.485	2508.08
527.691	2153.78
527.896	2393.39
528.102	2823.47
528.307	3200.29
528.513	2260.27
528.718	2315.57
528.924	2954.54
529.129	2495.79
529.335	2497.84
529.54	2258.23
529.746	3159.33
529.951	2909.48
530.156	2096.44
530.362	2151.73
530.567	3204.39
530.772	2696.49
530.978	2325.81
531.183	2217.27
531.388	3302.69
531.594	2348.34
531.799	2325.81
532.004	2053.43
532.209	2739.5
532.414	2741.55
532.62	2139.44
532.825	2479.41
533.03	2643.24
533.235	2614.57
533.44	2182.45
533.646	2282.8
533.851	2651.44
534.056	2626.86
534.261	2491.7
534.466	2331.95
534.671	2858.28
534.876	2843.95
535.081	2299.19
535.286	2329.91
535.491	2524.46
535.696	2692.4
535.901	2331.95
536.106	2512.18
536.311	2620.72
536.516	2733.36
536.721	2626.86
536.926	2116.92
537.131	2843.95
537.336	3360.03
537.541	2200.88
537.746	2385.2
537.95	2665.77
538.155	2295.09
538.36	2106.68
538.565	2252.08
538.77	2497.84
538.975	2706.73
539.179	2012.47
539.384	2213.17
539.589	2497.84
539.794	3089.7
539.998	2078.01
540.203	2282.8
540.408	2712.88
540.612	3030.31
540.817	2315.57
541.022	2053.43
541.226	2889
541.431	2841.9
541.636	1889.59
541.84	1959.22
542.045	2837.8
542.249	2108.73
542.454	2184.5
542.659	2123.06
542.863	2559.28
543.068	2491.7
543.272	2211.12
543.477	2012.47
543.681	3024.17
543.886	2678.06
544.09	2155.83
544.295	2053.43
544.499	2635.05
544.703	2702.64
544.908	2225.46
545.112	3020.07
545.317	2014.52
545.521	2774.31
545.725	2008.37
545.93	2133.3
546.134	2741.55
546.338	2237.75
546.542	2884.91
546.747	2086.2
546.951	2626.86
547.155	2534.7
547.36	1987.89
547.564	2168.12
547.768	2651.44
547.972	2530.61
548.176	2282.8
548.381	2045.24
548.585	3231.01
548.789	2319.67
548.993	2303.28
549.197	2110.77
549.401	2966.82
549.605	2542.89
549.809	2037.05
550.013	2344.24
550.217	2245.94
550.421	2346.29
550.625	1987.89
550.829	2180.4
551.033	2538.8
551.237	2651.44
551.441	2110.77
551.645	2188.6
551.849	2925.86
552.053	2798.89
552.257	2104.63
552.461	1897.78
552.665	3226.92
552.869	2348.34
553.073	2241.84
553.277	1942.84
553.48	2727.21
553.684	2424.11
553.888	2192.69
554.092	2262.32
554.296	2569.52
554.499	2798.89
554.703	2094.39
554.907	2528.56
555.111	2743.6
555.314	2780.46
555.518	2364.72
555.722	2057.53
555.925	2811.18
556.129	2800.94
556.333	2055.48
556.536	1938.74
556.74	2856.23
556.943	2516.27
557.147	2041.14
557.351	2219.32
557.554	3145
557.758	2768.17
557.961	1862.97
558.165	2422.06
558.368	2170.16
558.572	2639.15
558.775	1779
558.979	2153.78
559.182	2561.33
559.385	2772.27
559.589	1889.59
559.792	1899.83
559.996	2520.37
560.199	2405.68
560.402	2090.29
560.606	2006.33
560.809	2278.71
561.012	2231.6
561.216	1959.22
561.419	1910.07
561.622	2348.34
561.826	1783.1
562.029	1846.59
562.232	1914.17
562.435	2397.49
562.639	2121.01
562.842	2164.02
563.045	1828.15
563.248	2655.53
563.451	2757.93
563.654	1994.04
563.858	2057.53
564.061	2886.95
564.264	2508.08
564.467	2055.48
564.67	2037.05
564.873	2491.7
565.076	2458.93
565.279	2092.34
565.482	1762.62
565.685	2573.61
565.888	2837.8
566.091	1811.77
566.294	2041.14
566.497	2643.24
566.7	2264.37
566.903	1914.17
567.106	1750.33
567.309	2614.57
567.512	2417.97
567.714	1975.61
567.917	1811.77
568.12	2356.53
568.323	2520.37
568.526	2012.47
568.729	2176.31
568.931	2385.2
569.134	2530.61
569.337	1779
569.54	2696.49
569.742	2422.06
569.945	2725.16
570.148	2004.28
570.351	1971.51
570.553	2647.34
570.756	2370.87
570.958	1662.27
571.161	1899.83
571.364	2663.72
571.566	2450.74
571.769	1764.67
571.972	2045.24
572.174	2471.22
572.377	2561.33
572.579	2035
572.782	1918.26
572.984	2518.32
573.187	3261.73
573.389	1934.65
573.592	2071.86
573.794	2743.6
573.997	2845.99
574.199	1731.9
574.401	1881.4
574.604	2166.07
574.806	2401.58
575.009	1926.46
575.211	2063.67
575.413	2385.2
575.616	2708.78
575.818	1895.74
576.02	2239.8
576.223	2471.22
576.425	2268.47
576.627	2485.55
576.829	1873.21
577.032	2276.66
577.234	2706.73
577.436	1865.02
577.638	1912.12
577.84	2372.91
578.042	2690.35
578.245	2012.47
578.447	1873.21
578.649	2250.03
578.851	2311.47
579.053	1676.6
579.255	1660.22
579.457	2610.48
579.659	2213.17
579.861	1934.65
580.063	1557.82
580.265	2413.87
580.467	2123.06
580.669	1934.65
580.871	1877.3
581.073	2057.53
581.275	2450.74
581.477	4277.52
581.679	1623.36
581.881	2319.67
582.083	2512.18
582.285	1725.76
582.487	1801.53
582.688	2200.88
582.89	2194.74
583.092	1727.8
583.294	1785.15
583.496	2178.36
583.697	3013.93
583.899	1889.59
584.101	1746.23
584.303	2481.46
584.504	2088.25
584.706	1885.5
584.908	1789.24
585.109	2164.02
585.311	2202.93
585.513	1760.57
585.714	1684.8
585.916	2358.58
586.118	2405.68
586.319	1660.22
586.521	1619.26
586.722	2188.6
586.924	2086.2
587.125	1750.33
587.327	1551.68
587.528	2422.06
587.73	2155.83
587.931	1742.14
588.133	1621.31
588.334	1717.56
588.536	2258.23
588.737	1738.04
588.939	1695.04
589.14	1936.7
589.341	1793.34
589.543	1590.59
589.744	1869.11
589.945	2020.66
590.147	2118.97
590.348	1715.52
590.549	1596.73
590.751	2043.19
590.952	2534.7
591.153	1721.66
591.354	1873.21
591.556	1944.89
591.757	2245.94
591.958	1551.68
592.159	1944.89
592.36	2106.68
592.562	2237.75
592.763	1389.89
592.964	2413.87
593.165	1938.74
593.366	2336.05
593.567	1779
593.768	1822.01
593.969	1991.99
594.17	1799.48
594.371	1801.53
594.572	1684.8
594.773	2043.19
594.974	2286.9
595.175	2016.57
595.376	1799.48
595.577	2350.39
595.778	2211.12
595.979	1578.3
596.18	1611.07
596.381	2397.49
596.582	2198.84
596.783	1459.52
596.984	1598.78
597.184	2161.97
597.385	2188.6
597.586	1658.17
597.787	2037.05
597.988	2231.6
598.188	2055.48
598.389	1932.6
598.59	1543.49
598.791	2463.02
598.991	1955.13
599.192	1543.49
599.393	1725.76
599.593	2293.04
599.794	2323.76
599.995	1658.17
600.195	1766.71
600.396	2254.13
600.596	2121.01
600.797	1611.07
600.998	1705.28
601.198	2303.28
601.399	1989.94
601.599	1457.47
601.8	1895.74
602	1955.13
602.201	1991.99
602.401	1867.06
602.602	1678.65
602.802	1901.88
603.002	1996.09
603.203	1303.87
603.403	1672.51
603.604	2258.23
603.804	2405.68
604.004	1631.55
604.205	1729.85
604.405	1983.8
604.605	2082.1
604.806	1539.39
605.006	1715.52
605.206	1834.3
605.406	2299.19
605.607	1553.73
605.807	1611.07
606.007	1977.66
606.207	2256.18
606.408	1553.73
606.608	1692.99
606.808	1928.5
607.008	1893.69
607.208	1459.52
607.408	1639.74
607.608	1969.46
607.808	1910.07
608.009	1684.8
608.209	1848.63
608.409	1926.46
608.609	2362.67
608.809	1643.84
609.009	1582.4
609.209	2057.53
609.409	2364.72
609.609	1516.86
609.809	1559.87
610.008	2239.8
610.208	2020.66
610.408	1615.16
610.608	1750.33
610.808	1883.45
611.008	1615.16
611.208	1459.52
611.408	1391.94
611.607	2188.6
611.807	2184.5
612.007	1703.23
612.207	1547.58
612.406	2055.48
612.606	2112.82
612.806	1541.44
613.006	1750.33
613.205	2221.36
613.405	1881.4
613.605	1557.82
613.804	1531.2
614.004	2223.41
614.204	2041.14
614.403	1559.87
614.603	1674.56
614.802	1897.78
615.002	2364.72
615.202	1629.5
615.401	1463.61
615.601	1631.55
615.8	2155.83
616	1721.66
616.199	1662.27
616.399	2241.84
616.598	2043.19
616.798	1512.77
616.997	1594.69
617.196	1822.01
617.396	2200.88
617.595	1389.89
617.795	1572.16
617.994	2028.85
618.193	1785.15
618.393	1721.66
618.592	1865.02
618.791	1752.38
618.991	2266.42
619.19	1467.71
619.389	1498.43
619.588	2213.17
619.788	2290.99
619.987	1400.13
620.186	1557.82
620.385	1844.54
620.584	2008.37
620.783	1459.52
620.983	2022.71
621.182	1961.27
621.381	2118.97
621.58	1553.73
621.779	1676.6
621.978	2235.7
622.177	2125.11
622.376	1486.14
622.575	1553.73
622.774	2348.34
622.973	2127.16
623.172	1525.05
623.371	1774.91
623.57	1881.4
623.769	1541.44
623.968	1713.47
624.167	1465.66
624.366	2313.52
624.565	2157.88
624.764	1719.61
624.962	2022.71
625.161	1893.69
625.36	1686.84
625.559	1705.28
625.758	1627.45
625.957	2016.57
626.155	1940.79
626.354	1373.5
626.553	1643.84
626.752	2176.31
626.95	2917.67
627.149	1602.88
627.348	1385.79
627.546	1871.16
627.745	2086.2
627.944	1682.75
628.142	1746.23
628.341	3007.78
628.539	2102.58
628.738	1611.07
628.937	1480
629.135	2190.64
629.334	2172.21
629.532	1621.31
629.731	1795.39
629.929	1922.36
630.128	1897.78
630.326	1647.93
630.525	1398.08
630.723	1809.72
630.921	2606.38
631.12	1672.51
631.318	1434.94
631.517	1844.54
631.715	2047.29
631.913	1684.8
632.112	1545.53
632.31	1725.76
632.508	1824.06
632.707	1520.96
632.905	1506.62
633.103	1983.8
633.301	1922.36
633.5	1783.1
633.698	1701.18
633.896	2053.43
634.094	1752.38
634.293	1428.8
634.491	1529.15
634.689	2049.33
634.887	2587.95
635.085	1619.26
635.283	1463.61
635.481	2037.05
635.679	1908.02
635.877	1492.29
636.075	1582.4
636.274	2149.68
636.472	1946.94
636.67	1635.64
636.868	1410.37
637.066	2016.57
637.263	1957.18
637.461	1369.41
637.659	1901.88
637.857	2018.61
638.055	2381.1
638.253	1639.74
638.451	1416.51
638.649	1766.71
638.847	2135.35
639.044	1461.57
639.242	1441.09
639.44	2090.29
639.638	2004.28
639.836	1469.76
640.033	1512.77
640.231	1568.06
640.429	1938.74
640.627	1668.41
640.824	1545.53
641.022	2280.75
641.22	2057.53
641.417	1516.86
641.615	1439.04
641.813	1731.9
642.01	2641.2
642.208	1344.83
642.405	1930.55
642.603	1713.47
642.801	2102.58
642.998	1717.56
643.196	1711.42
643.393	2405.68
643.591	1989.94
643.788	1723.71
643.986	1336.64
644.183	2192.69
644.38	2178.36
644.578	1957.18
644.775	1563.97
644.973	2260.27
645.17	2438.45
645.367	1660.22
645.565	1387.84
645.762	1709.37
645.959	1799.48
646.157	1965.37
646.354	1752.38
646.551	2268.47
646.749	1918.26
646.946	1692.99
647.143	1996.09
647.34	2008.37
647.537	2071.86
647.735	1895.74
647.932	1463.61
648.129	2319.67
648.326	2245.94
648.523	1660.22
648.72	1463.61
648.918	2344.24
649.115	2137.4
649.312	1752.38
649.509	1566.01
649.706	1903.93
649.903	2192.69
650.1	1627.45
650.297	1463.61
650.494	2151.73
650.691	2561.33
650.888	1602.88
651.085	1725.76
651.282	2149.68
651.479	2016.57
651.675	1754.43
651.872	1641.79
652.069	2286.9
652.266	2899.24
652.463	2055.48
652.66	1686.84
652.857	2524.46
653.053	2161.97
653.25	1764.67
653.447	1662.27
653.644	2403.63
653.84	2286.9
654.037	1791.29
654.234	1836.35
654.43	2084.15
654.627	1922.36
654.824	1662.27
655.02	1750.33
655.217	2225.46
655.414	2164.02
655.61	1566.01
655.807	1639.74
656.004	2153.78
656.2	2200.88
656.397	1695.04
656.593	1738.04
656.79	2284.85
656.986	2372.91
657.183	1602.88
657.379	1815.87
657.576	2286.9
657.772	2071.86
657.968	1625.4
658.165	1953.08
658.361	2241.84
658.558	1897.78
658.754	1928.5
658.95	1881.4
659.147	2334
659.343	2088.25
659.539	1936.7
659.736	2047.29
659.932	5862.65
660.128	2264.37
660.324	1965.37
660.521	1897.78
660.717	2501.94
660.913	2104.63
661.109	1871.16
661.306	1848.63
661.502	2489.65
661.698	2409.78
661.894	1834.3
662.09	2063.67
662.286	2401.58
662.482	2544.94
662.678	2356.53
662.874	1701.18
663.07	2876.71
663.266	2221.36
663.462	1932.6
663.659	1840.44
663.854	1895.74
664.05	2499.89
664.246	2051.38
664.442	1811.77
664.638	2575.66
664.834	2708.78
665.03	1791.29
665.226	2102.58
665.422	2622.77
665.618	2422.06
665.814	2037.05
666.009	1926.46
666.205	2528.56
666.401	2643.24
666.597	2618.67
666.793	2082.1
666.988	2020.66
667.184	2698.54
667.38	2041.14
667.575	2338.1
667.771	2465.07
667.967	2403.63
668.162	2131.25
668.358	2037.05
668.554	1930.55
668.749	2053.43
668.945	1987.89
669.141	2143.54
669.336	2514.22
669.532	2723.12
669.727	1924.41
669.923	1867.06
670.118	2358.58
670.314	2471.22
670.509	2172.21
670.705	2377.01
670.9	2811.18
671.096	2841.9
671.291	2061.62
671.486	2309.43
671.682	2508.08
671.877	3054.89
672.073	2749.74
672.268	2129.2
672.463	2493.74
672.659	2676.01
672.854	2360.63
673.049	2127.16
673.244	2712.88
673.44	2368.82
673.635	2055.48
673.83	2100.53
674.025	2374.96
674.221	2700.59
674.416	2540.85
674.611	2274.61
674.806	2778.41
675.001	2317.62
675.196	2233.65
675.392	2032.95
675.587	2676.01
675.782	3204.39
675.977	2610.48
676.172	2192.69
676.367	2991.4
676.562	2891.05
676.757	2356.53
676.952	2573.61
677.147	3048.74
677.342	2997.54
677.537	2286.9
677.732	2430.26
677.927	3081.51
678.122	2825.51
678.316	2460.98
678.511	2403.63
678.706	3198.24
678.901	3392.8
679.096	2477.36
679.291	2604.33
679.485	3265.83
679.68	3271.97
679.875	2401.58
680.07	2393.39
680.264	3136.81
680.459	2905.39
680.654	2766.12
680.849	2420.02
681.043	2991.4
681.238	3200.29
681.433	2579.76
681.627	2872.62
681.822	3243.3
682.016	3114.28
682.211	2575.66
682.406	2688.3
682.6	3099.94
682.795	2784.55
682.989	2499.89
683.184	2536.75
683.378	3200.29
683.573	3269.92
683.767	2467.12
683.962	2848.04
684.156	3314.98
684.351	2923.82
684.545	2856.23
684.739	2565.42
684.934	3261.73
685.128	3155.24
685.322	2764.08
685.517	2606.38
685.711	3568.93
685.905	3736.86
686.1	2811.18
686.294	2921.77
686.488	3269.92
686.682	3306.79
686.877	2532.65
687.071	2712.88
687.265	3247.4
687.459	3452.19
687.653	2686.25
687.848	3446.05
688.042	3183.91
688.236	3374.37
688.43	2946.34
688.624	2610.48
688.818	3720.48
689.012	3124.52
689.206	2946.34
689.4	2596.14
689.594	3394.85
689.788	3611.93
689.982	2934.06
690.176	2901.29
690.37	3990.81
690.564	2725.16
690.758	2708.78
690.952	2620.72
691.146	3730.72
691.34	3274.02
691.534	2921.77
691.728	2862.38
691.921	3468.58
692.115	3343.65
692.309	2929.96
692.503	2999.59
692.697	3231.01
692.89	3708.19
693.084	2845.99
693.278	3077.41
693.472	3523.87
693.665	3798.3
693.859	3061.03
694.053	3331.36
694.246	3556.64
694.44	3466.53
694.634	2819.37
694.827	2825.51
695.021	3986.71
695.214	3622.17
695.408	2889
695.602	2901.29
695.795	3290.4
695.989	3261.73
696.182	3044.65
696.376	3159.33
696.569	3446.05
696.762	4064.54
696.956	3218.72
697.149	3466.53
697.343	3783.96
697.536	3579.17
697.73	3136.81
697.923	2872.62
698.116	3781.92
698.31	3749.15
698.503	3052.84
698.696	3134.76
698.89	3810.59
699.083	3487.01
699.276	3167.52
699.469	3171.62
699.663	3566.88
699.856	4121.88
700.049	3077.41
700.242	2964.78
700.435	3855.64
700.629	3331.36
700.822	3196.2
701.015	3204.39
701.208	3626.27
701.401	3790.11
701.594	3194.15
701.787	3153.19
701.98	3347.75
702.173	3810.59
702.366	3069.22
702.559	3020.07
702.752	3800.35
702.945	3161.38
703.138	3243.3
703.331	3116.33
703.524	3900.7
703.717	3640.61
703.91	3466.53
704.103	3274.02
704.296	4080.92
704.489	3953.94
704.681	3761.44
704.874	3685.66
705.067	3839.26
705.26	3624.22
705.453	3331.36
705.645	3728.67
705.838	3917.08
706.031	3601.69
706.224	3386.66
706.416	3278.12
706.609	3851.55
706.802	3865.88
706.994	3276.07
707.187	3171.62
707.38	4261.14
707.572	3798.3
707.765	3202.34
707.957	3523.87
708.15	4027.67
708.342	4146.45
708.535	3407.14
708.728	3310.88
708.92	3814.68
709.113	3865.88
709.305	3228.96
709.497	3405.09
709.69	3706.14
709.882	3763.48
710.075	3732.76
710.267	3276.07
710.46	4275.48
710.652	3726.62
710.844	3155.24
711.037	3314.98
711.229	3808.54
711.421	3732.76
711.614	3325.22
711.806	3274.02
711.998	4310.29
712.19	3732.76
712.383	3505.44
712.575	3403.04
712.767	3835.16
712.959	3431.71
713.151	3380.51
713.343	3499.3
713.536	3937.56
713.728	3728.67
713.92	3726.62
714.112	3425.57
714.304	4248.85
714.496	3745.05
714.688	3958.04
714.88	3654.94
715.072	3792.16
715.264	4244.76
715.456	3374.37
715.648	3298.6
715.84	3710.24
716.032	4330.77
716.224	3439.9
716.416	3206.44
716.608	4298
716.8	4134.17
716.992	3515.68
717.183	3357.99
717.375	3603.74
717.567	3544.35
717.759	3368.23
717.951	3343.65
718.142	4060.44
718.334	3710.24
718.526	3237.16
718.718	3452.19
718.909	4072.73
719.101	4003.1
719.293	3458.34
719.484	3441.95
719.676	3851.55
719.868	4025.62
720.059	3403.04
720.251	3368.23
720.442	4211.99
720.634	4029.72
720.826	3247.4
721.017	3904.79
721.209	3523.87
721.4	3874.07
721.592	3595.55
721.783	3360.03
721.975	3943.71
722.166	4054.3
722.357	3556.64
722.549	3450.14
722.74	4336.92
722.932	4381.97
723.123	3437.86
723.314	3630.37
723.506	4033.82
723.697	3966.23
723.888	3214.63
724.08	3618.08
724.271	3867.93
724.462	3869.98
724.654	3667.23
724.845	3613.98
725.036	3687.71
725.227	3704.09
725.418	3331.36
725.61	3661.09
725.801	4166.93
725.992	3589.41
726.183	3347.75
726.374	3591.45
726.565	3544.35
726.756	3839.26
726.947	3392.8
727.138	3421.47
727.329	4078.87
727.52	3878.17
727.711	3384.61
727.902	3478.82
728.093	4451.6
728.284	4080.92
728.475	4201.75
728.666	3671.33
728.857	4005.14
729.048	3577.12
729.239	3499.3
729.43	3548.45
729.621	4238.61
729.811	3538.21
730.002	3888.41
730.193	3444
730.384	3921.18
730.575	4097.3
730.765	3589.41
730.956	3460.38
731.147	3814.68
731.338	3781.92
731.528	3886.36
731.719	3765.53
731.91	4058.39
732.1	4027.67
732.291	3425.57
732.481	3546.4
732.672	3542.3
732.863	3773.72
733.053	3630.37
733.244	3994.9
733.434	4119.83
733.625	3874.07
733.815	3589.41
734.006	3775.77
734.196	3765.53
734.387	3468.58
734.577	3935.51
734.768	3536.16
734.958	3595.55
735.148	4011.29
735.339	3718.43
735.529	3499.3
735.72	3786.01
735.91	3824.92
736.1	3695.9
736.291	3671.33
736.481	4031.77
736.671	4162.84
736.861	3585.31
737.052	3458.34
737.242	4089.11
737.432	3988.76
737.622	3482.91
737.812	3388.71
738.003	3515.68
738.193	3773.72
738.383	3294.5
738.573	3386.66
738.763	3720.48
738.953	3839.26
739.143	3710.24
739.333	3554.59
739.523	3708.19
739.713	4080.92
739.903	3650.85
740.093	3284.26
740.283	3867.93
740.473	3487.01
740.663	3599.65
740.853	3417.38
741.043	4037.91
741.233	3988.76
741.423	3560.73
741.613	3290.4
741.803	3736.86
741.992	4080.92
742.182	3632.41
742.372	3421.47
742.562	3720.48
742.752	3941.66
742.941	3437.86
743.131	3458.34
743.321	3925.27
743.511	4011.29
743.7	3577.12
743.89	3638.56
744.08	4052.25
744.269	3908.89
744.459	3435.81
744.649	3462.43
744.838	3527.97
745.028	3695.9
745.217	3181.86
745.407	3323.17
745.596	3546.4
745.786	3573.02
745.975	3708.19
746.165	3530.02
746.354	3732.76
746.544	3792.16
746.733	3372.32
746.923	3405.09
747.112	3646.75
747.302	3917.08
747.491	3224.87
747.68	3579.17
747.87	3671.33
748.059	3843.35
748.248	3740.96
748.438	3579.17
748.627	3697.95
748.816	4068.63
749.006	3136.81
749.195	3335.46
749.384	3814.68
749.573	3880.22
749.762	3417.38
749.952	3593.5
750.141	3974.42
750.33	3724.57
750.519	3259.68
750.708	3265.83
750.897	3491.1
751.086	3542.3
751.275	3411.23
751.465	3431.71
751.654	3708.19
751.843	3642.65
752.032	3149.09
752.221	3413.28
752.41	3616.03
752.599	3806.49
752.787	3470.62
752.976	3130.66
753.165	3175.72
753.354	3542.3
753.543	3435.81
753.732	3423.52
753.921	3558.69
754.11	3523.87
754.298	3210.53
754.487	3216.68
754.676	3607.84
754.865	3773.72
755.054	3423.52
755.242	3171.62
755.431	3777.82
755.62	3843.35
755.808	3085.61
755.997	3323.17
756.186	4539.66
756.374	3575.07
756.563	3347.75
756.752	3437.86
756.94	3482.91
757.129	3519.78
757.317	3087.65
757.506	3130.66
757.695	3628.32
757.883	3517.73
758.072	3337.51
758.26	3147.05
758.449	3599.65
758.637	3384.61
758.825	3065.13
759.014	3128.61
759.202	3618.08
759.391	3644.7
759.579	2952.49
759.767	3380.51
759.956	3843.35
760.144	3695.9
760.332	2835.75
760.521	3325.22
760.709	3605.79
760.897	3792.16
761.086	3267.88
761.274	3564.83
761.462	3429.66
761.65	3777.82
761.838	3161.38
762.027	2970.92
762.215	3429.66
762.403	3220.77
762.591	2886.95
762.779	3032.36
762.967	3691.81
763.155	3333.41
763.343	2917.67
763.531	3214.63
763.719	3257.64
763.907	3798.3
764.095	3032.36
764.283	3216.68
764.471	3243.3
764.659	3202.34
764.847	2741.55
765.035	2755.88
765.223	3288.36
765.411	3198.24
765.599	2747.69
765.787	3347.75
765.975	3847.45
766.162	2716.97
766.35	2743.6
766.538	2725.16
766.726	3372.32
766.914	3173.67
767.101	2811.18
767.289	2796.84
767.477	3429.66
767.665	3368.23
767.852	2688.3
768.04	2956.58
768.228	3245.35
768.415	3263.78
768.603	2741.55
768.79	2745.64
768.978	3392.8
769.166	2972.97
769.353	2796.84
769.541	3200.29
769.728	3341.6
769.916	3493.15
770.103	3061.03
770.291	2546.99
770.478	3210.53
770.666	3192.1
770.853	8094.94
771.04	2585.9
771.228	3220.77
771.415	3624.22
771.603	2899.24
771.79	2802.99
771.977	3364.13
772.165	3235.11
772.352	2745.64
772.539	2454.83
772.726	3413.28
772.914	3081.51
773.101	2805.03
773.288	2716.97
773.475	2934.06
773.663	3138.85
773.85	2729.26
774.037	2583.85
774.224	3398.95
774.411	3482.91
774.598	2479.41
774.785	2446.64
774.972	3335.46
775.159	3075.37
775.347	2626.86
775.534	2684.2
775.721	2901.29
775.908	3071.27
776.095	2430.26
776.282	2508.08
776.468	2311.47
776.655	3036.45
776.842	2694.44
777.029	2428.21
777.216	2950.44
777.403	2825.51
777.59	2329.91
777.777	2942.25
777.964	3020.07
778.15	3040.55
778.337	2262.32
778.524	2426.16
778.711	3302.69
778.897	2909.48
779.084	2415.92
779.271	2321.71
779.458	2868.52
779.644	3165.48
779.831	2290.99
780.018	2325.81
780.204	3118.37
780.391	3155.24
780.577	2561.33
780.764	2145.59
780.951	2567.47
781.137	2983.21
781.324	2327.86
781.51	2845.99
781.697	2372.91
781.883	2594.09
782.07	2352.43
782.256	2221.36
782.443	3007.78
782.629	2774.31
782.815	2323.76
783.002	2397.49
783.188	2997.54
783.374	2587.95
783.561	2278.71
783.747	2323.76
783.933	2540.85
784.12	2286.9
784.306	2346.29
784.492	2184.5
784.679	2852.14
784.865	2934.06
785.051	2340.15
785.237	2219.32
785.423	2721.07
785.61	2837.8
785.796	2354.48
785.982	2166.07
786.168	2757.93
786.354	2659.63
786.54	3294.5
786.726	2078.01
786.912	2471.22
787.098	2569.52
787.284	2350.39
787.47	2809.13
787.656	2596.14
787.842	2508.08
788.028	2088.25
788.214	2112.82
788.4	2639.15
788.586	2520.37
788.772	2151.73
788.958	2147.64
789.144	2880.81
789.33	2413.87
789.515	2055.48
789.701	2022.71
789.887	2796.84
790.073	2874.67
790.259	1869.11
790.444	2082.1
790.63	2563.37
790.816	3067.17
791.001	1971.51
791.187	1987.89
791.373	2207.03
791.558	2237.75
791.744	1977.66
791.93	1994.04
792.115	2778.41
792.301	2643.24
792.486	2104.63
792.672	1867.06
792.858	2583.85
793.043	2700.59
793.229	1678.65
793.414	1844.54
793.6	2417.97
793.785	2137.4
793.97	1996.09
794.156	1991.99
794.341	4103.45
794.527	2696.49
794.712	2010.42
794.897	2190.64
795.083	2796.84
795.268	2284.85
795.453	1758.52
795.639	1930.55
795.824	2344.24
796.009	2385.2
796.194	1772.86
796.38	1707.32
796.565	2284.85
796.75	2346.29
796.935	1701.18
797.12	2043.19
797.306	2469.17
797.491	2471.22
797.676	2094.39
797.861	2069.81
798.046	2278.71
798.231	2260.27
798.416	1643.84
798.601	1865.02
798.786	2004.28
798.971	2225.46
799.156	1723.71
799.341	1758.52
799.526	2327.86
799.711	2282.8
799.896	2047.29
800.081	1709.37
800.266	2256.18
800.451	2319.67
800.636	1733.95
800.82	1787.19
801.005	2145.59
801.19	2196.79
801.375	1899.83
801.56	1441.09
801.744	2004.28
801.929	2389.3
802.114	1830.2
802.299	1652.03
802.483	2102.58
802.668	2241.84
802.853	1717.56
803.037	1901.88
803.222	2481.46
803.407	2110.77
803.591	1783.1
803.776	1897.78
803.96	2176.31
804.145	2098.49
804.329	1633.6
804.514	1817.91
804.698	2172.21
804.883	2250.03
805.067	1480
805.252	1670.46
805.436	1905.98
805.621	2137.4
805.805	1619.26
805.989	1815.87
806.174	2168.12
806.358	2297.14
806.543	1566.01
806.727	1873.21
806.911	2344.24
807.095	1959.22
807.28	1348.93
807.464	1434.94
807.648	1869.11
807.832	2139.44
808.017	1350.98
808.201	1537.34
808.385	2235.7
808.569	2153.78
808.753	1809.72
808.937	1578.3
809.122	1615.16
809.306	1897.78
809.49	1596.73
809.674	1856.82
809.858	2340.15
810.042	1709.37
810.226	1695.04
810.41	1584.45
810.594	1682.75
810.778	1983.8
810.962	1500.48
811.146	1381.7
811.33	1901.88
811.514	2196.79
811.697	1273.15
811.881	1529.15
812.065	2151.73
812.249	1799.48
812.433	1348.93
812.617	1383.74
812.8	1756.47
812.984	2080.05
813.168	1465.66
813.352	1318.21
813.535	2196.79
813.719	1807.67
813.903	1619.26
814.086	1561.92
814.27	2078.01
814.454	1877.3
814.637	1348.93
814.821	1543.49
815.005	2016.57
815.188	1856.82
815.372	1316.16
815.555	1129.8
815.739	1738.04
815.922	1910.07
816.106	1248.58
816.289	1267.01
816.473	1334.59
816.656	1758.52
816.84	1443.14
817.023	1275.2
817.206	1875.26
817.39	1600.83
817.573	1181
817.756	1541.44
817.94	2063.67
818.123	1846.59
818.306	1371.46
818.49	1213.76
818.673	1824.06
818.856	1742.14
819.039	1310.02
819.223	1471.81
819.406	1555.77
819.589	1750.33
819.772	1131.84
819.955	1185.09
820.138	1494.33
820.321	1860.92
820.505	1320.26
820.688	1166.66
820.871	1977.66
821.054	2053.43
821.237	1242.43
821.42	1250.63
821.603	1942.84
821.786	1717.56
821.969	1238.34
822.152	1455.42
822.335	1572.16
822.518	1430.85
822.7	1492.29
822.883	1080.64
823.066	1764.67
823.249	1623.36
823.432	1355.07
823.615	1025.35
823.797	1647.93
823.98	1930.55
824.163	1326.4
824.346	1283.39
824.528	1717.56
824.711	1455.42
824.894	1447.23
825.077	1060.17
825.259	1580.35
825.442	2114.87
825.625	925
825.807	1430.85
825.99	1793.34
826.172	1692.99
826.355	1172.8
826.537	996.68
826.72	1721.66
826.903	1934.65
827.085	1123.65
827.268	1080.64
827.45	1658.17
827.632	1701.18
827.815	1445.18
827.997	963.91
828.18	1451.33
828.362	1465.66
828.544	1142.08
828.727	968.01
828.909	1367.36
829.091	1406.27
829.274	1367.36
829.456	972.1
829.638	1377.6
829.821	1369.41
830.003	1244.48
830.185	1107.27
830.367	1406.27
830.549	1756.47
830.732	1197.38
830.914	863.56
831.096	1568.06
831.278	1867.06
831.46	1252.67
831.642	1258.82
831.824	1516.86
832.006	1738.04
832.188	890.18
832.37	1156.42
832.552	1584.45
832.734	1774.91
832.916	1250.63
833.098	1170.76
833.28	1447.23
833.462	1303.87
833.644	1101.12
833.826	1240.39
834.008	1625.4
834.19	1254.72
834.372	1283.39
834.553	1137.99
834.735	1326.4
834.917	1959.22
835.099	1148.23
835.281	912.71
835.462	1676.6
835.644	1326.4
835.826	1557.82
836.007	951.62
836.189	1721.66
836.371	1606.97
836.552	1148.23
836.734	1324.35
836.916	1445.18
837.097	1418.56
837.279	1015.11
837.46	1414.46
837.642	1539.39
837.823	1291.59
838.005	1029.45
838.186	1074.5
838.368	1697.08
838.549	1492.29
838.731	1084.74
838.912	996.68
839.094	1682.75
839.275	1938.74
839.456	1172.8
839.638	992.58
839.819	1371.46
840	1361.22
840.182	851.27
840.363	1256.77
840.544	1242.43
840.725	1760.57
840.907	879.94
841.088	1234.24
841.269	1570.11
841.45	1566.01
841.632	1000.77
841.813	949.57
841.994	1371.46
842.175	1299.78
842.356	937.29
842.537	896.33
842.718	1733.95
842.899	1555.77
843.08	798.03
843.261	986.44
843.442	2020.66
843.623	1498.43
843.804	935.24
843.985	1025.35
844.166	1406.27
844.347	1742.14
844.528	832.84
844.709	894.28
844.89	1232.19
845.071	1301.83
845.252	785.74
845.432	1017.16
845.613	1430.85
845.794	1576.25
845.975	1017.16
846.155	1912.12
846.336	1819.96
846.517	1928.5
846.698	820.55
846.878	1121.6
847.059	1346.88
847.24	1406.27
847.42	984.39
847.601	1355.07
847.782	1406.27
847.962	1355.07
848.143	820.55
848.323	1127.75
848.504	1609.02
848.684	1115.46
848.865	904.52
849.045	943.43
849.226	1035.59
849.406	1355.07
849.587	963.91
849.767	978.25
849.947	1678.65
850.128	1613.12
850.308	881.99
850.489	1004.87
850.669	1250.63
850.849	1340.74
851.03	1103.17
851.21	1119.56
851.39	1131.84
851.57	1414.46
851.751	927.05
851.931	965.96
852.111	1164.61
852.291	1606.97
852.471	1162.56
852.652	734.54
852.832	1213.76
853.012	1023.3
853.192	937.29
853.372	1013.06
853.552	1314.11
853.732	1588.54
853.912	873.8
854.092	814.41
854.272	1203.52
854.452	1279.3
854.632	918.86
854.812	881.99
854.992	1439.04
855.172	1463.61
855.352	1025.35
855.532	818.5
855.712	1469.76
855.891	1678.65
856.071	1000.77
856.251	968.01
856.431	1516.86
856.611	1586.49
856.79	955.72
856.97	669
857.15	1914.17
857.33	1297.73
857.509	755.02
857.689	912.71
857.869	1426.75
858.048	1140.04
858.228	1254.72
858.408	656.72
858.587	1344.83
858.767	1267.01
858.946	939.34
859.126	1000.77
859.305	1312.07
859.485	1545.53
859.664	1131.84
859.844	1047.88
860.023	1279.3
860.203	1299.78
860.382	849.22
860.562	800.07
860.741	968.01
860.92	1172.8
861.1	689.48
861.279	869.7
861.458	1008.97
861.638	1135.94
861.817	787.79
861.996	705.87
862.176	1305.92
862.355	1334.59
862.534	847.18
862.713	925
862.892	1688.89
863.072	1389.89
863.251	828.74
863.43	630.09
863.609	789.83
863.788	738.63
863.967	570.7
864.146	488.78
864.325	1099.08
864.504	884.04
864.683	542.03
864.862	693.58
865.041	1111.36
865.22	1336.64
865.399	800.07
865.578	879.94
865.757	1158.47
865.936	642.38
866.115	632.14
866.294	476.49
866.473	1090.88
866.652	1203.52
866.83	621.9
867.009	413.01
867.188	822.6
867.367	1451.33
867.545	877.9
867.724	341.33
867.903	1045.83
868.082	996.68
868.26	623.95
868.439	521.55
868.618	970.05
868.796	1062.21
868.975	623.95
869.153	419.15
869.332	681.29
869.511	847.18
869.689	752.97
869.868	617.8
870.046	1228.1
870.225	1137.99
870.403	787.79
870.582	447.82
870.76	1041.73
870.939	1432.9
871.117	415.05
871.295	476.49
871.474	681.29
871.652	1254.72
871.83	441.68
872.009	466.25
872.187	1002.82
872.365	1082.69
872.544	349.52
872.722	562.51
872.9	431.44
873.078	828.74
873.257	335.18
873.435	456.01
873.613	1119.56
873.791	920.9
873.969	163.15
874.147	462.16
874.325	963.91
874.504	851.27
874.682	415.05
874.86	247.12
875.038	871.75
875.216	851.27
875.394	212.31
875.572	585.04
875.75	865.61
875.928	972.1
876.106	380.24
876.283	431.44
876.461	1125.7
876.639	609.61
876.817	304.46
876.995	476.49
877.173	828.74
877.351	1054.02
877.528	177.49
877.706	306.51
877.884	503.12
878.062	791.88
878.239	298.32
878.417	347.47
878.595	787.79
878.773	236.88
878.95	130.39
879.128	826.7
879.305	861.51
879.483	388.43
879.661	234.83
879.838	480.59
880.016	1103.17
880.193	798.03
880.371	288.08
880.548	509.26
880.726	744.78
880.903	699.72
881.081	320.85
881.258	554.32
881.436	951.62
881.613	808.26
881.79	355.66
881.968	329.04
882.145	656.72
882.323	761.16
882.5	300.37
882.677	1166.66
882.854	558.41
883.032	712.01
883.209	419.15
883.386	103.76
883.563	634.19
883.741	865.61
883.918	378.19
884.095	288.08
884.272	406.86
884.449	595.28
884.626	296.27
884.803	308.56
884.98	789.83
885.158	589.13
885.335	279.89
885.512	542.03
885.689	687.43
885.866	933.19
886.043	114
886.22	177.49
886.397	714.06
886.573	759.11
886.75	150.87
886.927	376.14
887.104	572.75
887.281	669
887.458	441.68
887.635	208.21
887.811	685.39
887.988	675.15
888.165	15.7
888.342	341.33
888.518	687.43
888.695	1209.67
888.872	288.08
889.049	161.11
889.225	542.03
889.402	1131.84
889.578	-37.55
889.755	550.22
889.932	890.18
890.108	589.13
890.285	56.66
890.461	99.67
890.638	365.9
890.814	734.54
890.991	349.52
891.167	279.89
891.344	525.65
891.52	1170.76
891.697	300.37
891.873	488.78
892.05	775.5
892.226	859.46
892.402	484.69
892.579	243.03
892.755	789.83
892.931	691.53
893.108	222.55
893.284	-2.73
893.46	728.39
893.636	826.7
893.812	109.91
893.989	644.43
894.165	515.41
894.341	734.54
894.517	107.86
894.693	46.42
894.869	331.09
895.046	779.59
895.222	91.48
895.398	542.03
895.574	306.51
895.75	312.66
895.926	376.14
896.102	171.35
896.278	619.85
896.454	720.2
896.63	-76.46
896.806	243.03
896.981	914.76
897.157	648.52
897.333	21.85
897.509	132.44
897.685	714.06
897.861	546.12
898.037	331.09
898.212	-41.64
898.388	419.15
898.564	531.79
898.74	243.03
898.915	251.22
899.091	791.88
899.267	865.61
899.442	564.56
899.618	273.75
899.794	355.66
899.969	484.69
900.145	208.21
900.32	-117.42
900.496	429.39
900.671	779.59
900.847	226.64
901.022	193.87
901.198	326.99
901.373	480.59
901.549	132.44
901.724	177.49
901.9	462.16
902.075	574.8
902.251	404.82
902.426	-141.99
902.601	562.51
902.777	451.92
902.952	255.31
903.127	128.34
903.303	492.88
903.478	558.41
903.653	60.76
903.828	124.24
904.003	544.08
904.179	730.44
904.354	423.25
904.529	212.31
904.704	435.53
904.879	415.05
905.054	173.39
905.229	148.82
905.405	468.3
905.58	523.6
905.755	171.35
905.93	120.15
906.105	664.91
906.28	748.87
906.455	-141.99
906.63	222.55
906.804	669
906.979	640.33
907.154	124.24
907.329	48.47
907.504	570.7
907.679	453.97
907.854	972.1
908.029	116.05
908.203	730.44
908.378	628.04
908.553	435.53
908.728	202.07
908.902	312.66
909.077	415.05
909.252	126.29
909.426	-203.43
909.601	843.08
909.776	238.93
909.95	392.53
910.125	-17.07
910.3	828.74
910.474	755.02
910.649	-2.73
910.823	95.57
910.998	456.01
911.172	630.09
911.347	56.66
911.521	-121.51
911.696	466.25
911.87	304.46
912.044	-152.23
912.219	-19.11
912.393	736.59
912.568	38.23
912.742	-51.88
912.916	204.11
913.09	490.83
913.265	-68.27
913.439	312.66
913.613	-27.31
913.788	421.2
913.962	466.25
914.136	21.85
914.31	-76.46
914.484	531.79
914.658	331.09
914.833	216.4
915.007	345.42
915.181	484.69
915.355	777.55
915.529	410.96
915.703	30.04
915.877	253.27
916.051	574.8
916.225	265.55
916.399	-129.7
916.573	320.85
916.747	548.17
916.921	173.39
917.095	206.16
917.269	456.01
917.442	548.17
917.616	68.95
917.79	-45.74
917.964	851.27
918.138	-53.93
918.311	-64.17
918.485	-129.7
918.659	357.71
918.833	761.16
919.006	-127.66
919.18	326.99
919.354	435.53
919.527	660.81
919.701	169.3
919.875	642.38
920.048	333.14
920.222	173.39
920.395	-15.02
920.569	-51.88
920.743	640.33
920.916	181.59
921.09	181.59
921.263	165.2
921.437	189.78
921.61	449.87
921.783	128.34
921.957	99.67
922.13	251.22
922.304	548.17
922.477	36.18
922.65	32.08
922.824	812.36
922.997	353.62
923.17	21.85
923.343	-55.98
923.517	533.84
923.69	775.5
923.863	-45.74
924.036	179.54
924.21	464.21
924.383	802.12
924.556	-58.03
924.729	296.27
924.902	111.96
925.075	335.18
925.248	-66.22
925.421	-76.46
925.594	173.39
925.767	177.49
925.94	-60.07
926.113	-74.41
926.286	103.76
926.459	343.38
926.632	161.11
926.805	142.68
926.978	619.85
927.151	300.37
927.324	-27.31
927.497	140.63
927.669	593.23
927.842	435.53
928.015	-131.75
928.188	120.15
928.361	302.42
928.533	251.22
928.706	-137.9
928.879	44.37
929.051	413.01
929.224	1025.35
929.397	1.37
929.569	611.66
929.742	476.49
929.915	292.18
930.087	-35.5
930.26	142.68
930.432	163.15
930.605	593.23
930.777	249.17
930.95	-8.87
931.122	525.65
931.295	501.07
931.467	-84.65
931.64	-17.07
931.812	935.24
931.984	62.8
932.157	54.61
932.329	144.72
932.501	472.4
932.674	277.84
932.846	95.57
933.018	-174.76
933.191	300.37
933.363	167.25
933.535	17.75
933.707	165.2
933.879	341.33
934.052	267.6
934.224	-68.27
934.396	1.37
934.568	152.91
934.74	566.6
934.912	81.24
935.084	-72.36
935.256	480.59
935.428	353.62
935.6	71
935.772	-15.02
935.944	400.72
936.116	359.76
936.288	134.48
936.46	-158.38
936.632	406.86
936.804	384.34
936.976	19.8
937.148	93.52
937.32	322.9
937.491	421.2
937.663	103.76
937.835	279.89
938.007	486.73
938.178	626
938.35	-166.57
938.522	-111.27
938.694	513.36
938.865	353.62
939.037	-406.18
939.209	226.64
939.38	283.99
939.552	202.07
939.723	-150.18
939.895	124.24
940.067	281.94
940.238	449.87
940.41	247.12
940.581	-68.27
940.753	585.04
940.924	370
941.095	27.99
941.267	75.09
941.438	296.27
941.61	288.08
941.781	87.38
941.952	83.28
942.124	255.31
942.295	597.32
942.466	-58.03
942.638	251.22
942.809	574.8
942.98	312.66
943.151	-119.46
943.323	62.8
943.494	685.39
943.665	437.58
943.836	-146.09
944.007	-49.83
944.178	429.39
944.35	525.65
944.521	17.75
944.692	-256.68
944.863	292.18
945.034	-55.98
945.205	-260.77
945.376	-0.68
945.547	-123.56
945.718	439.63
945.889	56.66
946.06	222.55
946.23	322.9
946.401	251.22
946.572	-27.31
946.743	-35.5
946.914	322.9
947.085	359.76
947.256	-76.46
947.426	116.05
947.597	161.11
947.768	423.25
947.939	-268.97
948.109	21.85
948.28	611.66
948.451	390.48
948.621	50.52
948.792	-338.6
948.963	292.18
949.133	372.05
949.304	163.15
949.474	-82.6
949.645	548.17
949.815	208.21
949.986	-174.76
950.156	335.18
950.327	765.26
950.497	73.04
950.668	-64.17
950.838	-31.4
951.009	120.15
951.179	390.48
951.349	-88.75
951.52	-256.68
951.69	167.25
951.86	472.4
952.031	277.84
952.201	87.38
952.371	370
952.542	398.67
952.712	50.52
952.882	-43.69
953.052	480.59
953.222	466.25
953.392	187.73
953.563	204.11
953.733	210.26
953.903	585.04
954.073	91.48
954.243	30.04
954.413	396.62
954.583	73.04
954.753	1.37
954.923	83.28
955.093	537.93
955.263	359.76
955.433	-176.81
955.603	-45.74
955.773	599.37
955.943	161.11
956.113	11.61
956.282	-201.38
956.452	-41.64
956.622	480.59
956.792	5.46
956.962	-78.51
957.131	468.3
957.301	187.73
957.471	60.76
957.641	-2.73
957.81	599.37
957.98	470.35
958.15	148.82
958.319	236.88
958.489	431.44
958.658	417.1
958.828	-174.76
958.998	-55.98
959.167	468.3
959.337	363.86
959.506	154.96
959.676	103.76
959.845	478.54
960.014	390.48
960.184	-185
960.353	-49.83
960.523	695.63
960.692	300.37
960.861	-109.22
961.031	-51.88
961.2	316.75
961.369	570.7
961.539	-78.51
961.708	73.04
961.877	591.18
962.047	363.86
962.216	54.61
962.385	-260.77
962.554	308.56
962.723	275.79
962.892	-199.34
963.062	-305.83
963.231	374.1
963.4	370
963.569	-41.64
963.738	472.4
963.907	501.07
964.076	228.69
964.245	-58.03
964.414	89.43
964.583	441.68
964.752	275.79
964.921	157.01
965.09	443.73
965.259	548.17
965.427	451.92
965.596	85.33
965.765	-105.13
965.934	597.32
966.103	703.82
966.272	48.47
966.44	-154.28
966.609	767.31
966.778	730.44
966.947	-221.86
967.115	103.76
967.284	89.43
967.453	359.76
967.621	-191.14
967.79	-86.7
967.958	181.59
968.127	376.14
968.296	56.66
968.464	-105.13
968.633	380.24
968.801	546.12
968.97	326.99
969.138	-365.22
969.307	513.36
969.475	623.95
969.643	-25.26
969.812	-51.88
969.98	632.14
970.149	390.48
970.317	-49.83
970.485	-250.53
970.654	675.15
970.822	345.42
970.99	-178.86
971.158	25.94
971.327	415.05
971.495	212.31
971.663	253.27
971.831	-47.79
971.999	415.05
972.168	124.24
972.336	-60.07
972.504	-205.48
972.672	542.03
972.84	154.96
973.008	75.09
973.176	-344.74
973.344	591.18
973.512	294.22
973.68	91.48
973.848	-0.68
974.016	202.07
974.184	257.36
974.352	234.83
974.52	-238.25
974.688	644.43
974.855	136.53
975.023	134.48
975.191	-197.29
975.359	345.42
975.527	324.94
975.694	-422.56
975.862	75.09
976.03	-205.48
976.198	544.08
976.365	-180.9
976.533	-391.84
976.701	746.83
976.868	419.15
977.036	19.8
977.204	-74.41
977.371	101.72
977.539	-141.99
977.706	-39.59
977.874	-39.59
978.041	464.21
978.209	398.67
978.376	-101.03
978.544	-207.53
978.711	185.68
978.879	415.05
979.046	-82.6
979.213	54.61
979.381	496.97
979.548	269.65
979.715	148.82
979.883	-49.83
980.05	273.75
980.217	488.78
980.384	154.96
980.552	134.48
980.719	58.71
980.886	494.93
981.053	-228.01
981.22	-117.42
981.388	556.36
981.555	345.42
981.722	-178.86
981.889	-436.9
982.056	382.29
982.223	111.96
982.39	-10.92
982.557	116.05
982.724	402.77
982.891	275.79
983.058	-139.94
983.225	212.31
983.392	372.05
983.559	13.65
983.726	-133.8
983.893	-133.8
984.059	634.19
984.226	494.93
984.393	-166.57
984.56	-4.78
984.727	-101.03
984.893	308.56
985.06	66.9
985.227	-109.22
985.394	275.79
985.56	214.35
985.727	71
985.894	-92.84
986.06	370
986.227	410.96
986.393	-133.8
986.56	-6.83
986.727	433.49
986.893	103.76
987.06	-219.82
987.226	-141.99
987.393	316.75
987.559	501.07
987.726	-264.87
987.892	-125.61
988.058	349.52
988.225	124.24
988.391	-80.55
988.557	5.46
988.724	390.48
988.89	15.7
989.056	75.09
989.223	-221.86
989.389	408.91
989.555	247.12
989.721	-250.53
989.888	-139.94
990.054	136.53
990.22	734.54
990.386	-375.46
990.552	-76.46
990.718	701.77
990.885	179.54
991.051	-125.61
991.217	-133.8
991.383	619.85
991.549	154.96
991.715	-37.55
991.881	-141.99
992.047	838.98
992.213	275.79
992.379	316.75
992.544	-19.11
992.71	226.64
992.876	64.85
993.042	-346.79
993.208	-72.36
993.374	374.1
993.54	343.38
993.705	-289.45
993.871	-287.4
994.037	251.22
994.203	578.89
994.368	-254.63
994.534	-84.65
994.7	337.23
994.865	488.78
995.031	-109.22
995.197	-359.08
995.362	472.4
995.528	386.38
995.693	-242.34
995.859	-420.52
996.024	408.91
996.19	357.71
996.355	-258.73
996.521	-31.4
996.686	322.9
996.852	499.02
997.017	-154.28
997.183	-133.8
997.348	423.25
997.513	867.66
997.679	-170.66
997.844	-291.49
998.009	664.91
998.175	50.52
998.34	-207.53
998.505	-101.03
998.67	576.84
998.836	431.44
999.001	-72.36
999.166	-221.86
999.331	324.94
999.496	447.82
999.661	-277.16
999.826	-150.18
999.991	519.5
1000.157	230.74
1000.322	-228.01
1000.487	-199.34
1000.652	705.87
1000.817	326.99
1000.982	-146.09
1001.147	-365.22
1001.311	85.33
1001.476	345.42
1001.641	-248.49
1001.806	-350.89
1001.971	150.87
1002.136	316.75
1002.301	114
1002.465	34.13
1002.63	615.76
1002.795	314.7
1002.96	-215.72
1003.124	-256.68
1003.289	382.29
1003.454	247.12
1003.619	-29.35
1003.783	-178.86
1003.948	335.18
1004.112	554.32
1004.277	-139.94
1004.442	-234.15
1004.606	476.49
1004.771	314.7
1004.935	-281.25
1005.1	-404.13
1005.264	529.74
1005.429	191.83
1005.593	-465.57
1005.758	-303.78
1005.922	750.92
1006.086	574.8
1006.251	-481.96
1006.415	-238.25
1006.58	189.78
1006.744	374.1
1006.908	-182.95
1007.072	-424.61
1007.237	529.74
1007.401	646.48
1007.565	400.72
1007.729	394.58
1007.894	-15.02
1008.058	636.24
1008.222	-129.7
1008.386	-113.32
1008.55	165.2
1008.714	431.44
1008.878	-158.38
1009.042	73.04
1009.206	343.38
1009.37	503.12
1009.534	-406.18
1009.698	-230.06
1009.862	689.48
1010.026	337.23
1010.19	189.78
1010.354	-47.79
1010.518	214.35
1010.682	138.58
1010.846	-51.88
1011.01	-101.03
1011.173	476.49
1011.337	152.91
1011.501	-62.12
1011.665	-434.85
1011.828	531.79
1011.992	433.49
1012.156	-195.24
1012.32	-113.32
1012.483	275.79
1012.647	32.08
1012.811	-92.84
1012.974	152.91
1013.138	456.01
1013.301	294.22
1013.465	-160.42
1013.628	-275.11
1013.792	230.74
1013.955	490.83
1014.119	79.19
1014.282	564.56
1014.446	193.87
1014.609	406.86
1014.773	-125.61
1014.936	-344.74
1015.099	154.96
1015.263	304.46
1015.426	-228.01
1015.589	-2.73
1015.753	464.21
1015.916	603.47
1016.079	-354.98
1016.242	132.44
1016.406	392.53
1016.569	177.49
1016.732	-137.9
1016.895	-199.34
1017.058	513.36
1017.221	3.41
1017.385	-428.71
1017.548	-410.28
1017.711	218.45
1017.874	490.83
1018.037	-256.68
1018.2	-125.61
1018.363	300.37
1018.526	322.9
1018.689	-123.56
1018.852	81.24
1019.015	560.46
1019.177	415.05
1019.34	-123.56
1019.503	-303.78
1019.666	333.14
1019.829	292.18
1019.992	-203.43
1020.154	-254.63
1020.317	214.35
1020.48	380.24
1020.643	77.14
1020.805	-123.56
1020.968	220.5
1021.131	152.91
1021.293	-342.69
1021.456	-305.83
1021.619	503.12
1021.781	378.19
1021.944	11.61
1022.106	-342.69
1022.269	320.85
1022.432	56.66
1022.594	218.45
1022.757	-248.49
1022.919	650.57
1023.081	535.89
1023.244	1.37
1023.406	-185
1023.569	398.67
1023.731	58.71
1023.893	-107.18
1024.056	-176.81
1024.218	257.36
1024.38	474.45
1024.543	-250.53
1024.705	-68.27
1024.867	509.26
1025.029	222.55
1025.192	-144.04
1025.354	-289.45
1025.516	568.65
1025.678	558.41
1025.84	-148.14
1026.002	-346.79
1026.164	238.93
1026.326	447.82
1026.488	-230.06
1026.65	-428.71
1026.813	472.4
1026.975	306.51
1027.136	-66.22
1027.298	95.57
1027.46	413.01
1027.622	595.28
1027.784	-248.49
1027.946	-215.72
1028.108	-201.38
1028.27	326.99
1028.432	159.06
1028.593	46.42
1028.755	333.14
1028.917	275.79
1029.079	-150.18
1029.24	398.67
1029.402	523.6
1029.564	320.85
1029.726	-88.75
1029.887	17.75
1030.049	591.18
1030.21	410.96
1030.372	-174.76
1030.534	-475.81
1030.695	318.8
1030.857	394.58
1031.018	-170.66
1031.18	-207.53
1031.341	259.41
1031.503	247.12
1031.664	-289.45
1031.826	-264.87
1031.987	535.89
1032.148	-15.02
1032.31	-393.89
1032.471	-428.71
1032.632	271.7
1032.794	238.93
1032.955	-230.06
1033.116	-158.38
1033.278	439.63
1033.439	185.68
1033.6	-4.78
1033.761	169.3
1033.922	554.32
1034.084	689.48
1034.245	-389.8
1034.406	398.67
1034.567	529.74
1034.728	785.74
1034.889	-176.81
1035.05	-107.18
1035.211	824.65
1035.372	316.75
1035.533	-248.49
1035.694	-43.69
1035.855	279.89
1036.016	898.38
1036.177	-252.58
1036.338	-262.82
1036.499	279.89
1036.66	-123.56
1036.82	-314.02
1036.981	-51.88
1037.142	232.79
1037.303	253.27
1037.464	-326.31
1037.624	-271.01
1037.785	73.04
1037.946	439.63
1038.107	128.34
1038.267	105.81
1038.428	202.07
1038.588	881.99
1038.749	-445.09
1038.91	-193.19
1039.07	329.04
1039.231	243.03
1039.391	-234.15
1039.552	-182.95
1039.712	490.83
1039.873	392.53
1040.033	-94.89
1040.194	-180.9
1040.354	374.1
